#       RADIUS         OMEGA_H            NU_H         SIGMA_D          VC_TOT            VC_B            NU_B      PSIMAJ_TOT           PSI''
#
   0.0000000       1.6624126       2.2816133      0.68993664       0.0000000       0.0000000       8.3720655      -4.5999999       61.841167    
  0.99999998E-02   1.6624126       2.1612415      0.68307167      0.73250771E-01  0.70786759E-01   8.2020607      -4.5947556       57.306431    
  0.20000000E-01   1.6624126       1.8001258      0.67627496      0.14650154      0.14157352       7.6920452      -4.5895104       52.771698    
  0.29999999E-01   1.6503601       1.8037483      0.66954589      0.21681985      0.20947155       7.6348181      -4.5737405       49.681919    
  0.39999999E-01   1.6443007       1.8000463      0.66288382      0.28711820      0.27734953       7.5193472      -4.5579700       46.592136    
  0.49999997E-01   1.6272625       1.7838277      0.65628803      0.35215539      0.33998764       7.3911414      -4.5330224       42.234394    
  0.59999999E-01   1.6158038       1.7646955      0.64975786      0.41710541      0.40253654       7.2735286      -4.5080757       37.876656    
  0.70000000E-01   1.5948404       1.7462953      0.64329267      0.47529405      0.45832837       7.1063199      -4.4756436       33.049046    
  0.79999998E-01   1.5789350       1.7276499      0.63689178      0.53327644      0.51390737       6.9647479      -4.4432106       28.221439    
  0.89999996E-01   1.5552047       1.6998860      0.63055462      0.58389199      0.56211632       6.7738547      -4.4051752       23.595072    
  0.99999994E-01   1.5359569       1.6783704      0.62428051      0.63414693      0.60995096       6.6126513      -4.3671408       18.968708    
  0.11000000       1.5105423       1.6525705      0.61806881      0.67717403      0.65055180       6.4128242      -4.3253193       14.959383    
  0.12000000       1.4890323       1.6292077      0.61191893      0.71967626      0.69060522       6.2382226      -4.2834973       10.950058    
  0.13000000       1.4628465       1.6009835      0.60583019      0.75558555      0.72406107       6.0378656      -4.2394743       7.7291737    
  0.14000000       1.4400227       1.5771013      0.59980208      0.79081929      0.75680912       5.8588867      -4.1954508       4.5082903    
  0.14999999       1.4137763       1.5496535      0.59383398      0.82035071      0.78385347       5.6632123      -4.1505051       2.0744295    
  0.16000000       1.3904042       1.5233693      0.58792520      0.84908384      0.81005746       5.4862709      -4.1055593     -0.35943115    
  0.17000000       1.3646135       1.4972173      0.58207530      0.87307829      0.83152658       5.2996535      -4.0606623      -2.1018188    
  0.17999999       1.3412722       1.4720533      0.57628351      0.89618534      0.85205686       5.1285095      -4.0157647      -3.8442063    
  0.19000000       1.3162880       1.4454243      0.57054943      0.91547650      0.86878031       4.9532962      -3.9716160      -5.0245934    
  0.19999999       1.2933896       1.4207616      0.56487238      0.93382472      0.88450050       4.7902460      -3.9274669      -6.2049809    
  0.20999999       1.2694324       1.3959988      0.55925179      0.94917953      0.89724207       4.6271029      -3.8845406      -6.9532762    
  0.22000000       1.2472538       1.3721256      0.55368710      0.96356428      0.90894556       4.4741030      -3.8416145      -7.7015724    
  0.22999999       1.2244465       1.3471292      0.54817784      0.97565687      0.91837692       4.3228970      -3.8002136      -8.1295528    
  0.23999999       1.2031602       1.3243474      0.54272342      0.98677558      0.92675972       4.1804099      -3.7588127      -8.5575342    
  0.25000000       1.1815566       1.3019786      0.53732318      0.99618208      0.93345535       4.0409679      -3.7191110      -8.7563515    
  0.25999999       1.1612581       1.2797369      0.53197676       1.0046282      0.93911004       3.9087200      -3.6794097      -8.9551697    
  0.26999998       1.1408639       1.2581067      0.52668351       1.0118325      0.94355255       3.7805467      -3.6414902      -8.9941216    
  0.28000000       1.1215943       1.2376060      0.52144289       1.0181026      0.94697517       3.6584918      -3.6035707      -9.0330734    
  0.28999999       1.1023841       1.2172655      0.51625448       1.0235064      0.94956583       3.5407572      -3.5674505      -8.9638987    
  0.29999998       1.0841475       1.1974670      0.51111764       1.0280105      0.95116699       3.4278233      -3.5313301      -8.8947220    
  0.31000000       1.0660758       1.1788018      0.50603193       1.0319455      0.95223737       3.3198440      -3.4969833      -8.7554264    
  0.31999999       1.0488508       1.1601539      0.50099683       1.0350204      0.95235455       3.2158587      -3.4626362      -8.6161318    
  0.32999998       1.0318608       1.1418459      0.49601182       1.0377594      0.95217776       3.1166487      -3.4300079      -8.4334087    
  0.34000000       1.0156107       1.1243259      0.49107641       1.0396813      0.95108765       3.0207856      -3.3973799      -8.2506857    
  0.34999999      0.99964005       1.1075221      0.48619011       1.0414484      0.94988900       2.9295795      -3.3663979      -8.0433712    
  0.35999998      0.98431873       1.0913813      0.48135248       1.0424422      0.94781840       2.8409326      -3.3354166      -7.8360567    
  0.37000000      0.96930254       1.0752659      0.47656292       1.0434214      0.94578302       2.7570329      -3.3059986      -7.6173682    
  0.38000000      0.95485908       1.0597625      0.47182107       1.0436711      0.94291788       2.6753929      -3.2765810      -7.3986797    
  0.38999999      0.94073343       1.0446358      0.46712637       1.0440141      0.94019920       2.5979168      -3.2486408      -7.1776872    
  0.39999998      0.92711478       1.0297619      0.46247834       1.0436704      0.93669230       2.5225916      -3.2207007      -6.9566946    
  0.41000000      0.91381741       1.0155574      0.45787665       1.0435020      0.93341702       2.4511061      -3.1941500      -6.7391410    
  0.41999999      0.90097094       1.0018348      0.45332071       1.0426884      0.92939419       2.3813567      -3.1675992      -6.5215874    
  0.42999998      0.88844287      0.98847061      0.44881007       1.0421114      0.92566776       2.3152542      -3.1423512      -6.3111825    
  0.44000000      0.87631726      0.97553670      0.44434431       1.0409290      0.92123294       2.2506411      -3.1171026      -6.1007776    
  0.44999999      0.86450273      0.96270299      0.43992302       1.0400283      0.91714329       2.1894343      -3.0930724      -5.8998809    
  0.45999998      0.85304886      0.95050734      0.43554571       1.0385600      0.91238266       2.1295636      -3.0690422      -5.6989841    
  0.47000000      0.84189594      0.93841046      0.43121195       1.0374060      0.90800327       2.0727680      -3.0461507      -5.5089312    
  0.47999999      0.83106732      0.92667413      0.42692134       1.0357200      0.90298867       2.0171347      -3.0232589      -5.3188772    
  0.48999998      0.82052779      0.91547990      0.42267343       1.0343716      0.89838129       1.9644240      -3.0014296      -5.1402593    
  0.50000000      0.81028086      0.90438747      0.41846773       1.0325246      0.89317268       1.9127260      -2.9796007      -4.9616413    
  0.50999999      0.80031008      0.89360243      0.41430390       1.0310307      0.88838947       1.8637624      -2.9587631      -4.7946258    
  0.51999998      0.79060423      0.88311154      0.41018152       1.0290695      0.88303709       1.8155382      -2.9379256      -4.6276102    
  0.52999997      0.78116113      0.87271571      0.40610015       1.0274705      0.87812221       1.7699287      -2.9180119      -4.4718642    
  0.53999996      0.77195859      0.86297584      0.40205941       1.0254338      0.87266839       1.7250494      -2.8980985      -4.3161187    
  0.55000001      0.76300514      0.85312891      0.39805880       1.0237638      0.86765927       1.6824406      -2.8790472      -4.1711893    
  0.56000000      0.75427085      0.84371442      0.39409807       1.0216836      0.86213982       1.6405659      -2.8599961      -4.0262594    
  0.56999999      0.74577248      0.83437985      0.39017674       1.0199709      0.85706848       1.6008271      -2.8417487      -3.8916516    
  0.57999998      0.73747420      0.82544708      0.38629439       1.0178739      0.85151380       1.5616952      -2.8235016      -3.7570436    
  0.58999997      0.72939873      0.81658655      0.38245073       1.0161421      0.84640747       1.5245339      -2.8060055      -3.6321402    
  0.59999996      0.72150660      0.80793661      0.37864527       1.0140501      0.84084344       1.4879559      -2.7885089      -3.5072365    
  0.61000001      0.71382463      0.79967946      0.37487766       1.0123192      0.83572572       1.4531971      -2.7717128      -3.3914218    
  0.62000000      0.70631099      0.79145163      0.37114757       1.0102504      0.83017433       1.4189180      -2.7549171      -3.2756069    
  0.63000000      0.69899571      0.78344196      0.36745462       1.0085372      0.82506549       1.3864080      -2.7387753      -3.1682768    
  0.63999999      0.69183534      0.77560991      0.36379838       1.0065070      0.81954581       1.3542395      -2.7226343      -3.0609465    
  0.64999998      0.68486184      0.76798236      0.36017853       1.0048255      0.81446344       1.3237139      -2.7071042      -2.9614875    
  0.65999997      0.67803121      0.76037449      0.35659468       1.0028464      0.80899161       1.2936143      -2.6915739      -2.8620286    
  0.66999996      0.67137671      0.75324637      0.35304654       1.0012081      0.80395079       1.2649986      -2.6766155      -2.7698400    
  0.68000001      0.66485411      0.74598700      0.34953365      0.99929059      0.79854089       1.2366855      -2.6616576      -2.6776514    
  0.69000000      0.65849763      0.73904890      0.34605572      0.99770522      0.79355490       1.2098765      -2.6472337      -2.5922313    
  0.69999999      0.65226340      0.73211741      0.34261239      0.99585766      0.78821909       1.1832949      -2.6328106      -2.5068109    
  0.70999998      0.64618546      0.72535992      0.33920336      0.99433339      0.78329933       1.1580373      -2.6188881      -2.4275999    
  0.71999997      0.64022112      0.71886486      0.33582821      0.99256265      0.77804792       1.1330605      -2.6049654      -2.3483887    
  0.72999996      0.63440400      0.71240270      0.33248669      0.99110574      0.77320439       1.1093594      -2.5915115      -2.2749009    
  0.74000001      0.62869245      0.70606536      0.32917836      0.98941737      0.76804644       1.0858722      -2.5780582      -2.2014134    
  0.75000000      0.62311977      0.69988137      0.32590300      0.98803312      0.76328790       1.0635791      -2.5650446      -2.1331692    
  0.75999999      0.61764544      0.69393259      0.32266021      0.98643118      0.75823116       1.0414773      -2.5520306      -2.0649250    
  0.76999998      0.61230195      0.68800676      0.31944969      0.98512363      0.75356507       1.0204551      -2.5394297      -2.0015633    
  0.77999997      0.60705024      0.68218923      0.31627113      0.98361140      0.74861628      0.99972254      -2.5268281      -1.9382018    
  0.78999996      0.60192198      0.67639434      0.31312418      0.98238409      0.74404901      0.97992182      -2.5146141      -1.8793230    
  0.79999995      0.59687936      0.67070431      0.31000853      0.98096395      0.73921376      0.96031463      -2.5023994      -1.8204443    
  0.81000000      0.59195322      0.66525465      0.30692390      0.97981894      0.73475081      0.94177043      -2.4905493      -1.7657351    
  0.81999999      0.58710736      0.65989929      0.30386993      0.97849244      0.73003393      0.92328805      -2.4786985      -1.7110261    
  0.82999998      0.58237141      0.65455830      0.30084637      0.97743106      0.72567993      0.90580881      -2.4671900      -1.6601422    
  0.83999997      0.57771081      0.64941329      0.29785293      0.97619885      0.72108525      0.88841665      -2.4556811      -1.6092579    
  0.84999996      0.57315385      0.64427865      0.29488924      0.97522211      0.71684426      0.87193435      -2.4444935      -1.5619386    
  0.85999995      0.56866765      0.63923025      0.29195502      0.97408432      0.71237510      0.85556549      -2.4333065      -1.5146192    
  0.87000000      0.56427944      0.63429129      0.28905001      0.97319216      0.70824987      0.84003592      -2.4224219      -1.4706213    
  0.88000000      0.55995768      0.62953115      0.28617394      0.97214824      0.70390844      0.82460928      -2.4115369      -1.4266236    
  0.88999999      0.55572861      0.62467873      0.28332645      0.97134006      0.69990093      0.80997413      -2.4009376      -1.3857086    
  0.89999998      0.55156213      0.62000006      0.28050730      0.97038853      0.69568861      0.79541409      -2.3903377      -1.3447937    
  0.90999997      0.54748321      0.61541891      0.27771622      0.96966332      0.69180042      0.78161973      -2.3800063      -1.3067162    
  0.91999996      0.54346329      0.61081707      0.27495292      0.96880293      0.68771809      0.76789218      -2.3696754      -1.2686388    
  0.93000001      0.53952616      0.60640091      0.27221707      0.96815914      0.68395019      0.75490713      -2.3595974      -1.2332339    
  0.94000000      0.53564489      0.60196251      0.26950845      0.96738768      0.67999840      0.74196345      -2.3495200      -1.1978292    
  0.94999999      0.53184193      0.59770209      0.26682681      0.96682322      0.67635065      0.72968638      -2.3396821      -1.1649333    
  0.95999998      0.52809173      0.59341794      0.26417184      0.96613801      0.67252868      0.71749890      -2.3298438      -1.1320376    
  0.96999997      0.52441579      0.58930463      0.26154327      0.96564937      0.66899943      0.70590413      -2.3202312      -1.1015936    
  0.97999996      0.52078962      0.58516645      0.25894088      0.96504658      0.66530502      0.69439292      -2.3106191      -1.0711495    
  0.98999995      0.51723397      0.58119214      0.25636438      0.96462911      0.66189003      0.68347311      -2.3012209      -1.0430971    
   1.0000000      0.51372540      0.57710934      0.25381351      0.96410346      0.65831852      0.67256045      -2.2918229      -1.0150447    
   1.0100000      0.51028365      0.57318616      0.25128803      0.96375102      0.65501207      0.66220349      -2.2826278     -0.98922038    
   1.0200000      0.50688660      0.56931877      0.24878767      0.96329606      0.65155697      0.65190226      -2.2734318     -0.96339583    
   1.0300000      0.50355303      0.56552345      0.24631219      0.96300298      0.64835304      0.64207059      -2.2644296     -0.93960381    
   1.0400000      0.50026178      0.56178087      0.24386135      0.96261239      0.64500785      0.63230813      -2.2554264     -0.91581196    
   1.0500000      0.49703079      0.55802906      0.24143489      0.96237338      0.64190096      0.62296772      -2.2466068     -0.89383239    
   1.0599999      0.49384013      0.55432928      0.23903258      0.96204156      0.63865966      0.61369270      -2.2377865     -0.87185287    
   1.0699999      0.49070662      0.55077171      0.23665416      0.96185172      0.63564467      0.60484689      -2.2291415     -0.85152018    
   1.0799999      0.48761156      0.54718715      0.23429942      0.96157336      0.63250178      0.59602863      -2.2204955     -0.83118743    
   1.0900000      0.48457071      0.54373944      0.23196806      0.96142823      0.62957406      0.58757997      -2.2120159     -0.81233782    
   1.1000000      0.48156646      0.54026407      0.22965996      0.96119863      0.62652433      0.57920712      -2.2035363     -0.79348826    
   1.1100000      0.47861391      0.53684884      0.22737481      0.96109426      0.62367958      0.57114726      -2.1952155     -0.77598584    
   1.1200000      0.47569633      0.53354967      0.22511238      0.96090925      0.62071842      0.56316018      -2.1868947     -0.75848353    
   1.1300000      0.47282782      0.53023541      0.22287247      0.96084183      0.61795259      0.55551589      -2.1787250     -0.74221355    
   1.1400000      0.46999261      0.52696377      0.22065488      0.96069717      0.61507559      0.54789090      -2.1705556     -0.72594368    
   1.1500000      0.46720421      0.52374649      0.21845931      0.96066332      0.61238503      0.54057276      -2.1625307     -0.71077538    
   1.1600000      0.46444768      0.52056986      0.21628560      0.96055549      0.60958815      0.53330517      -2.1545064     -0.69560695    
   1.1700000      0.46173576      0.51744503      0.21413353      0.96055198      0.60696924      0.52630991      -2.1466208     -0.68144643    
   1.1799999      0.45905414      0.51429218      0.21200287      0.96047759      0.60424864      0.51934648      -2.1387353     -0.66728598    
   1.1899999      0.45641518      0.51132190      0.20989341      0.96050161      0.60169828      0.51268864      -2.1309836     -0.65407836    
   1.1999999      0.45380527      0.50825691      0.20780493      0.96045768      0.59905058      0.50602770      -2.1232312     -0.64087093    
   1.2099999      0.45123595      0.50524026      0.20573725      0.96050632      0.59656560      0.49962419      -2.1156068     -0.62851411    
   1.2200000      0.44869444      0.50232404      0.20369010      0.96048969      0.59398741      0.49326506      -2.1079826     -0.61615735    
   1.2300000      0.44619179      0.49938962      0.20166335      0.96056080      0.59156513      0.48714933      -2.1004810     -0.60458553    
   1.2400000      0.44371572      0.49649015      0.19965677      0.96056902      0.58905333      0.48105982      -2.0929804     -0.59301376    
   1.2500000      0.44127685      0.49369675      0.19767016      0.96066016      0.58669102      0.47516865      -2.0855982     -0.58214986    
   1.2600000      0.43886346      0.49081317      0.19570331      0.96069068      0.58424276      0.46933430      -2.0782156     -0.57128602    
   1.2700000      0.43648568      0.48809424      0.19375603      0.96079952      0.58193791      0.46368647      -2.0709474     -0.56108284    
   1.2800000      0.43413222      0.48528609      0.19182813      0.96085024      0.57955050      0.45807791      -2.0636790     -0.55087984    
   1.2900000      0.43181288      0.48263833      0.18991940      0.96097505      0.57730073      0.45267659      -2.0565205     -0.54129350    
   1.3000000      0.42951700      0.47996125      0.18802968      0.96104360      0.57497174      0.44726574      -2.0493619     -0.53170729    
   1.3099999      0.42725366      0.47732276      0.18615875      0.96118265      0.57277483      0.44209895      -2.0423098     -0.52268577    
   1.3199999      0.42501289      0.47465611      0.18430644      0.96126735      0.57050174      0.43692148      -2.0352573     -0.51366425    
   1.3299999      0.42280337      0.47208458      0.18247257      0.96141875      0.56835568      0.43193108      -2.0283082     -0.50514698    
   1.3399999      0.42061546      0.46948469      0.18065692      0.96151769      0.56613624      0.42696029      -2.0213585     -0.49662977    
